# Force coefficients
# liftDir     : (0.000000e+00 1.000000e+00 0.000000e+00)
# dragDir     : (1.000000e+00 0.000000e+00 0.000000e+00)
# pitchAxis   : (0.000000e+00 0.000000e+00 1.000000e+00)
# magUInf     : 1.000000e+00
# lRef        : 1.000000e+00
# Aref        : 1.000000e-01
# CofR        : (0.000000e+00 0.000000e+00 0.000000e+00)
# Time        	Cm            	Cd            	Cl            	Cl(f)         	Cl(r)         
0.005         	-2.159132e-12	3.270959e+02	8.452124e-08	4.225846e-08	4.226278e-08
0.01          	1.017559e-09	-5.665397e+01	-8.446170e-07	-4.212910e-07	-4.233261e-07
0.015         	5.246763e-10	1.961183e+01	7.148793e-07	3.579643e-07	3.569150e-07
0.02          	7.756399e-10	1.068197e+00	7.851074e-09	4.701177e-09	3.149897e-09
0.025         	4.282202e-10	5.427620e+00	3.628332e-07	1.818448e-07	1.809884e-07
0.03          	2.958968e-10	4.128162e+00	7.302249e-08	3.680714e-08	3.621535e-08
0.035         	-1.065749e-10	4.375332e+00	2.267651e-07	1.132760e-07	1.134891e-07
0.04          	-4.800274e-10	4.234048e+00	1.975855e-07	9.831271e-08	9.927277e-08
0.045         	-8.611991e-10	4.212936e+00	2.041860e-07	1.012318e-07	1.029542e-07
0.05          	-1.239408e-09	4.168504e+00	2.230199e-07	1.102705e-07	1.127493e-07
0.055         	-1.618431e-09	4.137206e+00	6.859146e-08	3.267730e-08	3.591416e-08
0.06          	-1.988431e-09	4.107404e+00	1.231677e-07	5.959540e-08	6.357226e-08
0.065         	-2.355841e-09	4.081124e+00	1.247397e-07	6.001403e-08	6.472571e-08
0.07          	-2.720530e-09	4.056967e+00	1.303012e-07	6.243006e-08	6.787112e-08
0.075         	-3.082594e-09	4.034673e+00	1.154448e-07	5.463979e-08	6.080498e-08
0.08          	-3.441261e-09	4.013822e+00	3.699786e-08	1.505767e-08	2.194019e-08
0.085         	-3.792693e-09	3.994148e+00	2.164249e-07	1.044198e-07	1.120052e-07
0.09          	-4.143859e-09	3.975401e+00	7.946199e-08	3.558714e-08	4.387486e-08
0.095         	-4.492000e-09	3.957433e+00	1.956095e-07	9.331277e-08	1.022968e-07
0.1           	-4.839015e-09	3.940108e+00	-4.411991e-09	-7.045010e-09	2.633019e-09
0.105         	-5.179771e-09	3.923371e+00	1.762811e-07	8.296078e-08	9.332032e-08
0.11          	-5.517764e-09	3.907078e+00	6.283566e-08	2.590007e-08	3.693560e-08
0.115         	-5.851954e-09	3.891189e+00	1.351059e-07	6.170097e-08	7.340488e-08
0.12          	-6.183713e-09	3.875657e+00	8.374482e-08	3.568869e-08	4.805612e-08
0.125         	-6.614596e-09	3.860403e+00	2.724185e-07	1.295947e-07	1.428239e-07
0.13          	-7.339722e-09	3.845490e+00	1.744741e-07	7.989734e-08	9.457678e-08
0.135         	-8.050583e-09	3.830819e+00	3.037688e-07	1.438338e-07	1.599350e-07
0.14          	-8.758974e-09	3.816385e+00	2.018569e-07	9.216946e-08	1.096874e-07
0.145         	-9.458698e-09	3.802165e+00	2.954105e-07	1.382465e-07	1.571639e-07
0.15          	-1.015313e-08	3.788166e+00	1.335669e-07	5.663032e-08	7.693657e-08
0.155         	-1.083665e-08	3.774388e+00	2.584083e-07	1.183675e-07	1.400408e-07
0.16          	-1.151336e-08	3.760767e+00	2.131449e-07	9.505911e-08	1.180858e-07
0.165         	-1.218239e-08	3.747319e+00	2.981932e-07	1.369142e-07	1.612790e-07
0.17          	-1.284525e-08	3.734040e+00	1.635344e-07	6.892196e-08	9.461245e-08
0.175         	-1.349898e-08	3.720930e+00	2.135261e-07	9.326405e-08	1.202620e-07
0.18          	-1.414425e-08	3.707988e+00	2.290377e-07	1.003746e-07	1.286631e-07
0.185         	-1.478298e-08	3.695151e+00	2.947082e-07	1.325711e-07	1.621371e-07
0.19          	-1.541569e-08	3.682470e+00	2.105557e-07	8.986215e-08	1.206935e-07
0.195         	-1.604123e-08	3.669910e+00	3.065274e-07	1.372224e-07	1.693049e-07
0.2           	-1.666118e-08	3.657515e+00	1.094715e-07	3.807458e-08	7.139695e-08
0.205         	-1.727105e-08	3.645281e+00	2.339811e-07	9.971949e-08	1.342616e-07
0.21          	-1.787463e-08	3.633142e+00	2.752996e-07	1.197752e-07	1.555244e-07
0.215         	-1.847159e-08	3.621135e+00	2.293946e-07	9.622572e-08	1.331689e-07
0.22          	-1.906099e-08	3.609252e+00	2.389441e-07	1.004110e-07	1.385330e-07
0.225         	-1.964322e-08	3.597523e+00	1.288349e-07	4.477423e-08	8.406068e-08
0.23          	-2.046586e-08	3.585820e+00	5.853007e-07	2.721845e-07	3.131162e-07
0.235         	-2.128598e-08	3.574306e+00	4.126383e-07	1.850332e-07	2.276051e-07
0.24          	-2.209551e-08	3.562899e+00	4.597048e-07	2.077569e-07	2.519479e-07
0.245         	-2.289723e-08	3.551602e+00	4.601140e-07	2.071598e-07	2.529542e-07
0.25          	-2.369072e-08	3.540408e+00	3.982522e-07	1.754354e-07	2.228168e-07
0.255         	-2.447439e-08	3.529417e+00	3.969646e-07	1.740079e-07	2.229567e-07
0.26          	-2.524875e-08	3.518463e+00	4.923072e-07	2.209049e-07	2.714024e-07
0.265         	-2.601597e-08	3.507630e+00	4.296864e-07	1.888272e-07	2.408592e-07
0.27          	-2.677425e-08	3.496908e+00	4.249426e-07	1.856971e-07	2.392455e-07
0.275         	-2.752409e-08	3.486314e+00	3.564152e-07	1.506835e-07	2.057317e-07
0.28          	-2.826315e-08	3.475839e+00	4.944019e-07	2.189378e-07	2.754641e-07
0.285         	-2.899647e-08	3.465414e+00	4.246642e-07	1.833356e-07	2.413286e-07
0.29          	-2.972091e-08	3.455121e+00	4.197035e-07	1.801308e-07	2.395727e-07
0.295         	-3.043731e-08	3.444920e+00	4.608467e-07	1.999860e-07	2.608607e-07
0.3           	-3.114618e-08	3.434815e+00	4.346114e-07	1.861595e-07	2.484519e-07
0.305         	-3.184708e-08	3.424794e+00	3.554570e-07	1.458814e-07	2.095756e-07
0.31          	-3.253804e-08	3.414983e+00	3.660443e-07	1.504841e-07	2.155602e-07
0.315         	-3.322154e-08	3.405190e+00	4.686883e-07	2.011226e-07	2.675657e-07
0.32          	-3.389781e-08	3.395518e+00	3.530397e-07	1.426220e-07	2.104177e-07
0.325         	-3.456472e-08	3.385937e+00	4.354630e-07	1.831668e-07	2.522962e-07
0.33          	-3.522393e-08	3.376493e+00	3.204324e-07	1.249922e-07	1.954401e-07
0.335         	-3.587241e-08	3.367114e+00	4.858546e-07	2.070549e-07	2.787997e-07
0.34          	-3.651617e-08	3.357810e+00	3.799783e-07	1.534730e-07	2.265053e-07
0.345         	-3.715068e-08	3.348613e+00	4.102816e-07	1.679901e-07	2.422915e-07
0.35          	-3.777790e-08	3.339504e+00	4.052123e-07	1.648283e-07	2.403841e-07
0.355         	-3.839745e-08	3.330487e+00	3.984559e-07	1.608305e-07	2.376254e-07
0.36          	-3.900946e-08	3.321552e+00	4.289804e-07	1.754807e-07	2.534997e-07
0.365         	-3.961446e-08	3.312742e+00	2.071925e-07	6.398177e-08	1.432107e-07
0.37          	-4.020742e-08	3.304043e+00	4.730644e-07	1.963248e-07	2.767396e-07
0.375         	-4.079599e-08	3.295401e+00	3.505355e-07	1.344717e-07	2.160637e-07
0.38          	-4.137616e-08	3.286851e+00	4.023481e-07	1.597979e-07	2.425502e-07
0.385         	-4.194907e-08	3.278391e+00	3.693977e-07	1.427498e-07	2.266479e-07
0.39          	-4.251403e-08	3.270090e+00	2.997658e-07	1.073689e-07	1.923969e-07
0.395         	-4.306987e-08	3.261759e+00	4.377598e-07	1.758100e-07	2.619498e-07
0.4           	-4.362079e-08	3.253553e+00	3.561154e-07	1.344369e-07	2.216785e-07
0.405         	-4.416296e-08	3.245431e+00	3.816051e-07	1.466396e-07	2.349655e-07
0.41          	-4.518520e-08	3.237287e+00	7.016426e-07	3.056361e-07	3.960065e-07
0.415         	-4.619778e-08	3.229354e+00	6.368516e-07	2.722280e-07	3.646236e-07
0.42          	-4.719620e-08	3.221478e+00	6.651594e-07	2.853835e-07	3.797759e-07
0.425         	-4.818225e-08	3.213667e+00	6.815730e-07	2.926043e-07	3.889688e-07
0.43          	-4.915608e-08	3.206038e+00	5.287370e-07	2.152124e-07	3.135246e-07
0.435         	-5.011358e-08	3.198421e+00	6.680481e-07	2.839105e-07	3.841376e-07
0.44          	-5.106157e-08	3.190887e+00	6.223231e-07	2.601000e-07	3.622231e-07
0.445         	-5.199652e-08	3.183430e+00	6.318463e-07	2.639266e-07	3.679197e-07
0.45          	-5.291936e-08	3.176094e+00	5.499610e-07	2.220612e-07	3.278999e-07
0.455         	-5.382822e-08	3.168799e+00	6.843174e-07	2.883305e-07	3.959869e-07
0.46          	-5.472831e-08	3.161559e+00	5.988790e-07	2.447112e-07	3.541678e-07
0.465         	-5.561539e-08	3.154405e+00	6.458484e-07	2.673088e-07	3.785396e-07
0.47          	-5.649103e-08	3.147311e+00	5.978595e-07	2.424387e-07	3.554208e-07
0.475         	-5.735446e-08	3.140305e+00	6.156888e-07	2.504899e-07	3.651988e-07
0.48          	-5.820706e-08	3.133367e+00	6.057328e-07	2.446593e-07	3.610734e-07
0.485         	-5.904811e-08	3.126498e+00	6.067417e-07	2.443228e-07	3.624190e-07
0.49          	-6.013698e-08	3.119648e+00	6.057682e-07	2.427471e-07	3.630211e-07
0.495         	-6.121069e-08	3.112914e+00	5.212111e-07	1.993949e-07	3.218162e-07
0.5           	-6.226735e-08	3.106337e+00	5.794572e-07	2.274613e-07	3.519960e-07
0.505         	-6.331174e-08	3.099752e+00	5.620341e-07	2.177053e-07	3.443288e-07
0.51          	-6.434137e-08	3.093248e+00	5.524557e-07	2.118865e-07	3.405692e-07
0.515         	-6.535641e-08	3.086815e+00	5.437951e-07	2.065412e-07	3.372540e-07
0.52          	-6.635664e-08	3.080527e+00	4.426128e-07	1.549498e-07	2.876630e-07
0.525         	-6.734100e-08	3.074174e+00	6.147854e-07	2.400517e-07	3.747337e-07
0.53          	-6.831362e-08	3.067948e+00	5.230973e-07	1.932350e-07	3.298623e-07
0.535         	-6.927071e-08	3.061768e+00	5.384440e-07	1.999513e-07	3.384927e-07
0.54          	-7.021424e-08	3.055657e+00	5.284947e-07	1.940331e-07	3.344616e-07
0.545         	-7.114387e-08	3.049618e+00	4.510716e-07	1.543919e-07	2.966797e-07
0.55          	-7.205878e-08	3.043625e+00	5.649653e-07	2.104239e-07	3.545414e-07
0.555         	-7.296143e-08	3.037703e+00	5.009998e-07	1.775385e-07	3.234613e-07
0.56          	-7.385030e-08	3.031833e+00	5.301815e-07	1.912405e-07	3.389411e-07
0.565         	-7.472657e-08	3.026017e+00	5.415079e-07	1.960274e-07	3.454805e-07
0.57          	-7.559036e-08	3.020265e+00	3.743564e-07	1.115878e-07	2.627686e-07
0.575         	-7.643609e-08	3.014646e+00	5.146779e-07	1.809029e-07	3.337750e-07
0.58          	-7.727230e-08	3.009017e+00	4.725578e-07	1.590066e-07	3.135512e-07
0.585         	-7.809499e-08	3.003462e+00	4.770780e-07	1.604440e-07	3.166340e-07
0.59          	-7.890496e-08	2.997953e+00	5.281073e-07	1.851487e-07	3.429586e-07
0.595         	-7.970157e-08	2.992579e+00	2.996372e-07	7.011705e-08	2.295202e-07
0.6           	-8.048268e-08	2.987140e+00	5.320276e-07	1.855311e-07	3.464965e-07
0.605         	-8.125545e-08	2.981824e+00	4.315027e-07	1.344959e-07	2.970068e-07
0.61          	-8.201393e-08	2.976537e+00	4.710359e-07	1.535040e-07	3.175319e-07
0.615         	-8.276095e-08	2.971312e+00	4.508831e-07	1.426806e-07	3.082025e-07
0.62          	-8.349577e-08	2.966138e+00	4.499133e-07	1.414609e-07	3.084524e-07
0.625         	-8.421883e-08	2.961017e+00	4.446751e-07	1.381187e-07	3.065564e-07
0.63          	-8.493019e-08	2.955947e+00	4.394580e-07	1.347988e-07	3.046592e-07
0.635         	-8.563004e-08	2.950927e+00	4.403754e-07	1.345576e-07	3.058177e-07
0.64          	-8.631855e-08	2.945957e+00	4.320978e-07	1.297303e-07	3.023674e-07
0.645         	-8.699595e-08	2.941030e+00	4.529687e-07	1.394884e-07	3.134803e-07
0.65          	-8.766274e-08	2.936138e+00	4.846899e-07	1.546822e-07	3.300077e-07
0.655         	-8.831924e-08	2.931381e+00	2.012124e-07	1.228696e-08	1.889254e-07
0.66          	-8.895903e-08	2.926627e+00	4.462891e-07	1.341855e-07	3.121036e-07
0.665         	-8.959210e-08	2.921913e+00	3.745420e-07	9.767892e-08	2.768631e-07
0.67          	-9.021329e-08	2.917248e+00	3.805716e-07	1.000725e-07	2.804991e-07
0.675         	-9.082386e-08	2.912659e+00	3.001416e-07	5.924693e-08	2.408947e-07
0.68          	-9.212804e-08	2.907932e+00	8.142329e-07	3.149884e-07	4.992445e-07
0.685         	-9.342170e-08	2.903412e+00	5.928158e-07	2.029862e-07	3.898296e-07
0.69          	-9.469185e-08	2.898935e+00	6.913669e-07	2.509916e-07	4.403753e-07
0.695         	-9.594309e-08	2.894497e+00	6.462412e-07	2.271775e-07	4.190637e-07
0.7           	-9.717456e-08	2.890085e+00	6.770639e-07	2.413574e-07	4.357065e-07
0.705         	-9.838625e-08	2.885742e+00	6.334867e-07	2.183571e-07	4.151296e-07
0.71          	-9.957980e-08	2.881453e+00	5.699720e-07	1.854062e-07	3.845658e-07
0.715         	-1.007533e-07	2.877194e+00	6.822570e-07	2.403752e-07	4.418818e-07
0.72          	-1.019092e-07	2.872976e+00	6.192098e-07	2.076957e-07	4.115141e-07
0.725         	-1.030467e-07	2.868797e+00	6.230488e-07	2.084776e-07	4.145711e-07
0.73          	-1.041668e-07	2.864668e+00	6.165657e-07	2.041160e-07	4.124497e-07
0.735         	-1.052690e-07	2.860561e+00	6.135588e-07	2.015104e-07	4.120484e-07
0.74          	-1.063543e-07	2.856495e+00	6.276382e-07	2.074648e-07	4.201734e-07
0.745         	-1.074233e-07	2.852448e+00	6.569237e-07	2.210386e-07	4.358851e-07
0.75          	-1.084762e-07	2.848558e+00	4.052641e-07	9.415579e-08	3.111083e-07
0.755         	-1.095079e-07	2.844608e+00	6.141826e-07	1.975834e-07	4.165992e-07
0.76          	-1.105273e-07	2.840719e+00	5.523091e-07	1.656272e-07	3.866819e-07
0.765         	-1.115294e-07	2.836860e+00	5.610519e-07	1.689965e-07	3.920554e-07
0.77          	-1.125157e-07	2.833071e+00	4.331977e-07	1.040832e-07	3.291145e-07
0.775         	-1.134835e-07	2.829312e+00	6.466171e-07	2.098250e-07	4.367921e-07
0.78          	-1.144406e-07	2.825540e+00	5.037371e-07	1.374280e-07	3.663091e-07
0.785         	-1.153799e-07	2.821834e+00	5.468663e-07	1.580533e-07	3.888131e-07
0.79          	-1.163048e-07	2.818155e+00	5.184062e-07	1.428983e-07	3.755079e-07
0.795         	-1.172146e-07	2.814515e+00	5.093293e-07	1.374500e-07	3.718793e-07
0.8           	-1.181101e-07	2.810891e+00	5.850704e-07	1.744251e-07	4.106453e-07
0.805         	-1.189906e-07	2.807317e+00	4.935264e-07	1.277726e-07	3.657539e-07
0.81          	-1.198562e-07	2.803777e+00	4.960804e-07	1.281840e-07	3.678964e-07
0.815         	-1.207071e-07	2.800271e+00	4.903206e-07	1.244532e-07	3.658674e-07
0.82          	-1.215438e-07	2.796780e+00	5.435229e-07	1.502177e-07	3.933052e-07
0.825         	-1.223658e-07	2.793342e+00	4.447568e-07	1.000126e-07	3.447442e-07
0.83          	-1.231734e-07	2.789937e+00	4.634796e-07	1.085664e-07	3.549132e-07
0.835         	-1.239672e-07	2.786561e+00	4.649831e-07	1.085244e-07	3.564587e-07
0.84          	-1.247472e-07	2.783213e+00	4.657838e-07	1.081446e-07	3.576391e-07
0.845         	-1.255138e-07	2.779892e+00	4.613594e-07	1.051659e-07	3.561935e-07
0.85          	-1.262671e-07	2.776595e+00	4.574879e-07	1.024769e-07	3.550110e-07
0.855         	-1.270072e-07	2.773317e+00	4.153565e-07	8.067109e-08	3.346854e-07
0.86          	-1.277331e-07	2.770175e+00	4.055894e-07	7.506156e-08	3.305278e-07
0.865         	-1.284471e-07	2.766967e+00	4.600682e-07	1.015870e-07	3.584813e-07
0.87          	-1.291491e-07	2.763809e+00	4.277218e-07	8.471184e-08	3.430100e-07
0.875         	-1.298381e-07	2.760675e+00	4.178482e-07	7.908605e-08	3.387622e-07
0.88          	-1.305145e-07	2.757572e+00	3.859745e-07	6.247273e-08	3.235018e-07
0.885         	-1.311780e-07	2.754567e+00	4.215261e-07	7.958511e-08	3.419410e-07
0.89          	-1.318309e-07	2.751465e+00	4.155480e-07	7.594303e-08	3.396049e-07
0.895         	-1.324713e-07	2.748460e+00	3.953119e-07	6.518465e-08	3.301273e-07
0.9           	-1.330994e-07	2.745455e+00	3.966030e-07	6.520206e-08	3.314009e-07
0.905         	-1.337159e-07	2.742486e+00	3.875674e-07	6.006782e-08	3.274996e-07
0.91          	-1.343206e-07	2.739540e+00	3.813223e-07	5.634054e-08	3.249817e-07
0.915         	-1.349139e-07	2.736620e+00	3.755184e-07	5.284534e-08	3.226731e-07
0.92          	-1.354959e-07	2.733733e+00	3.403638e-07	3.468599e-08	3.056778e-07
0.925         	-1.360664e-07	2.730875e+00	3.388109e-07	3.333905e-08	3.054719e-07
0.93          	-1.366254e-07	2.728036e+00	3.761208e-07	5.143502e-08	3.246858e-07
0.935         	-1.371735e-07	2.725224e+00	3.343211e-07	2.998704e-08	3.043340e-07
0.94          	-1.377106e-07	2.722441e+00	3.687078e-07	4.664336e-08	3.220645e-07
0.945         	-1.382360e-07	2.719656e+00	3.634289e-07	4.347848e-08	3.199504e-07
0.95          	-1.387505e-07	2.716918e+00	3.127526e-07	1.762578e-08	2.951268e-07
0.955         	-1.392541e-07	2.714194e+00	3.539884e-07	3.774015e-08	3.162483e-07
0.96          	-1.397474e-07	2.711497e+00	4.055923e-07	6.304874e-08	3.425436e-07
0.965         	-1.402296e-07	2.708800e+00	2.620666e-07	-9.196307e-09	2.712629e-07
0.97          	-1.407003e-07	2.706160e+00	2.778770e-07	-1.761781e-09	2.796388e-07
0.975         	-1.411611e-07	2.703527e+00	3.392110e-07	2.844443e-08	3.107665e-07
0.98          	-1.416119e-07	2.700913e+00	2.955689e-07	6.172595e-09	2.893963e-07
0.985         	-1.420523e-07	2.698314e+00	2.616430e-07	-1.123086e-08	2.728738e-07
0.99          	-1.424824e-07	2.695776e+00	3.436079e-07	2.932157e-08	3.142863e-07
0.995         	-1.429043e-07	2.693268e+00	2.794506e-07	-3.178980e-09	2.826296e-07
1             	-1.435094e-07	2.690694e+00	2.753289e-07	-5.844964e-09	2.811738e-07
1.005         	-1.441018e-07	2.688211e+00	2.571257e-07	-1.553892e-08	2.726646e-07
1.01          	-1.446818e-07	2.685731e+00	2.498190e-07	-1.977231e-08	2.695914e-07
1.015         	-1.452496e-07	2.683276e+00	2.392466e-07	-2.562627e-08	2.648729e-07
1.02          	-1.458051e-07	2.680905e+00	2.018353e-07	-4.488743e-08	2.467227e-07
1.025         	-1.463483e-07	2.678444e+00	2.470065e-07	-2.284503e-08	2.698515e-07
1.03          	-1.468799e-07	2.676063e+00	1.904660e-07	-5.164685e-08	2.421129e-07
1.035         	-1.473987e-07	2.673678e+00	2.123343e-07	-4.123152e-08	2.535659e-07
1.04          	-1.479058e-07	2.671320e+00	1.885036e-07	-5.365404e-08	2.421576e-07
1.045         	-1.484009e-07	2.668979e+00	1.859261e-07	-5.543783e-08	2.413639e-07
1.05          	-1.488842e-07	2.666658e+00	1.735971e-07	-6.208563e-08	2.356827e-07
1.055         	-1.493556e-07	2.664356e+00	1.756324e-07	-6.153944e-08	2.371719e-07
1.06          	-1.506680e-07	2.661841e+00	3.711409e-07	3.490247e-08	3.362384e-07
1.065         	-1.519633e-07	2.659622e+00	3.604644e-07	2.826890e-08	3.321955e-07
1.07          	-1.532353e-07	2.657379e+00	3.409378e-07	1.723363e-08	3.237041e-07
1.075         	-1.544856e-07	2.655158e+00	3.412008e-07	1.611477e-08	3.250860e-07
1.08          	-1.557146e-07	2.652953e+00	3.307343e-07	9.652560e-09	3.210818e-07
1.085         	-1.569227e-07	2.650764e+00	3.247278e-07	5.441187e-09	3.192866e-07
1.09          	-1.581103e-07	2.648592e+00	3.118936e-07	-2.163434e-09	3.140571e-07
1.095         	-1.592777e-07	2.646437e+00	2.998187e-07	-9.368326e-09	3.091870e-07
1.1           	-1.604253e-07	2.644299e+00	2.867252e-07	-1.706273e-08	3.037879e-07
1.105         	-1.615535e-07	2.642177e+00	2.721152e-07	-2.549594e-08	2.976111e-07
1.11          	-1.626627e-07	2.640071e+00	2.549651e-07	-3.518012e-08	2.901452e-07
1.115         	-1.637534e-07	2.637977e+00	3.625213e-07	1.750728e-08	3.450140e-07
1.12          	-1.648255e-07	2.635888e+00	2.148632e-07	-5.739384e-08	2.722571e-07
1.125         	-1.658778e-07	2.633828e+00	2.489714e-07	-4.139213e-08	2.903635e-07
1.13          	-1.669120e-07	2.631781e+00	2.205230e-07	-5.665052e-08	2.771735e-07
1.135         	-1.679277e-07	2.629748e+00	2.133177e-07	-6.126887e-08	2.745866e-07
1.14          	-1.689258e-07	2.627713e+00	3.057565e-07	-1.604757e-08	3.218041e-07
1.145         	-1.699056e-07	2.625711e+00	1.252437e-07	-1.072837e-07	2.325274e-07
1.15          	-1.708665e-07	2.623719e+00	1.530824e-07	-9.432526e-08	2.474077e-07
1.155         	-1.718101e-07	2.621730e+00	1.385052e-07	-1.025575e-07	2.410627e-07
1.16          	-1.727369e-07	2.619827e+00	1.940751e-07	-7.569939e-08	2.697745e-07
1.165         	-1.736484e-07	2.617877e+00	1.343831e-07	-1.064568e-07	2.408399e-07
1.17          	-1.745430e-07	2.615946e+00	1.225045e-07	-1.132907e-07	2.357952e-07
1.175         	-1.754218e-07	2.614043e+00	1.099636e-07	-1.204400e-07	2.304036e-07
1.18          	-1.762841e-07	2.612142e+00	1.396985e-07	-1.064349e-07	2.461334e-07
1.185         	-1.771303e-07	2.610255e+00	9.756040e-08	-1.283501e-07	2.259105e-07
1.19          	-1.779609e-07	2.608409e+00	1.745364e-07	-9.069268e-08	2.652290e-07
1.195         	-1.787775e-07	2.606566e+00	9.778997e-09	-1.738880e-07	1.836670e-07
1.2           	-1.795751e-07	2.604698e+00	1.043401e-07	-1.274051e-07	2.317451e-07
1.205         	-1.803597e-07	2.602868e+00	3.991192e-08	-1.604037e-07	2.003157e-07
